##  Star in a Box 
## http://lcogt.net/starinabox 
## Data for a 1 solar mass star
## Columns are:
## Time, Radius (R_sun), Luminosity (L_sun), Surface Temperature (K), Mass (M_sun)
0.0, 0.901, 0.93411, 6005, 1.000
90.8365, 0.904, 0.93929, 6005, 1.000
181.673, 0.906, 0.94450, 6005, 1.000
272.509, 0.909, 0.94995, 6005, 1.000
363.346, 0.911, 0.95565, 6005, 1.000
454.182, 0.914, 0.96117, 6006, 1.000
545.019, 0.916, 0.96694, 6006, 1.000
635.855, 0.919, 0.97275, 6006, 1.000
726.692, 0.922, 0.97881, 6008, 1.000
817.528, 0.924, 0.98492, 6009, 1.000
908.365, 0.927, 0.99106, 6009, 1.000
999.201, 0.929, 0.99724, 6010, 1.000
1090.04, 0.932, 1.00369, 6012, 1.000
1180.87, 0.935, 1.01018, 6013, 1.000
1271.71, 0.937, 1.01672, 6015, 1.000
1362.55, 0.940, 1.02353, 6016, 1.000
1453.38, 0.943, 1.03039, 6017, 1.000
1544.22, 0.945, 1.03729, 6019, 1.000
1635.06, 0.948, 1.04448, 6020, 1.000
1725.89, 0.951, 1.05172, 6021, 1.000
1816.73, 0.953, 1.05901, 6024, 1.000
1907.57, 0.956, 1.06660, 6026, 1.000
1998.4, 0.959, 1.07424, 6027, 1.000
2089.24, 0.962, 1.08193, 6030, 1.000
2180.08, 0.965, 1.08993, 6031, 1.000
2270.91, 0.967, 1.09774, 6034, 1.000
2361.75, 0.970, 1.10611, 6037, 1.000
2452.59, 0.973, 1.11429, 6038, 1.000
2543.42, 0.976, 1.12279, 6041, 1.000
2634.26, 0.979, 1.13136, 6044, 1.000
2725.09, 0.982, 1.13999, 6045, 1.000
2815.93, 0.985, 1.14895, 6048, 1.000
2906.77, 0.988, 1.15798, 6051, 1.000
2997.6, 0.991, 1.16735, 6053, 1.000
3088.44, 0.994, 1.17652, 6056, 1.000
3179.28, 0.997, 1.18604, 6059, 1.000
3270.11, 1.000, 1.19591, 6062, 1.000
3360.95, 1.003, 1.20559, 6065, 1.000
3451.79, 1.007, 1.21563, 6067, 1.000
3542.62, 1.010, 1.22603, 6072, 1.000
3633.46, 1.013, 1.23623, 6074, 1.000
3724.3, 1.016, 1.24681, 6077, 1.000
3815.13, 1.020, 1.25748, 6080, 1.000
3905.97, 1.023, 1.26853, 6084, 1.000
3996.81, 1.026, 1.27968, 6087, 1.000
4087.64, 1.030, 1.29092, 6090, 1.000
4178.48, 1.033, 1.30227, 6094, 1.000
4269.31, 1.037, 1.31401, 6097, 1.000
4360.15, 1.040, 1.32587, 6100, 1.000
4450.99, 1.044, 1.33814, 6104, 1.000
4541.82, 1.047, 1.35052, 6107, 1.000
4632.66, 1.051, 1.36301, 6111, 1.000
4723.5, 1.055, 1.37562, 6114, 1.000
4814.33, 1.059, 1.38867, 6118, 1.000
4905.17, 1.062, 1.40185, 6121, 1.000
4996.01, 1.066, 1.41514, 6125, 1.000
5086.84, 1.070, 1.42889, 6128, 1.000
5177.68, 1.074, 1.44278, 6132, 1.000
5268.52, 1.078, 1.45714, 6135, 1.000
5359.35, 1.082, 1.47163, 6138, 1.000
5450.19, 1.086, 1.48628, 6142, 1.000
5541.03, 1.091, 1.50107, 6145, 1.000
5631.86, 1.095, 1.51635, 6149, 1.000
5722.7, 1.100, 1.53215, 6152, 1.000
5813.54, 1.104, 1.54775, 6155, 1.000
5904.37, 1.108, 1.56387, 6159, 1.000
5995.21, 1.113, 1.58052, 6162, 1.000
6086.04, 1.118, 1.59735, 6165, 1.000
6176.88, 1.123, 1.61436, 6167, 1.000
6267.72, 1.128, 1.63192, 6170, 1.000
6358.55, 1.133, 1.64968, 6173, 1.000
6449.39, 1.138, 1.66802, 6174, 1.000
6540.23, 1.144, 1.68655, 6177, 1.000
6631.06, 1.150, 1.70569, 6180, 1.000
6721.9, 1.156, 1.72504, 6182, 1.000
6812.74, 1.161, 1.74502, 6183, 1.000
6903.57, 1.168, 1.76563, 6184, 1.000
6994.41, 1.174, 1.78649, 6186, 1.000
7085.25, 1.181, 1.80801, 6186, 1.000
7176.08, 1.188, 1.82978, 6186, 1.000
7266.92, 1.196, 1.85225, 6186, 1.000
7357.76, 1.203, 1.87586, 6184, 1.000
7448.59, 1.212, 1.89977, 6184, 1.000
7539.43, 1.220, 1.92398, 6182, 1.000
7630.26, 1.229, 1.94940, 6179, 1.000
7721.1, 1.239, 1.97925, 6179, 1.000
7811.94, 1.290, 2.21208, 6224, 1.000
7902.77, 1.303, 2.24854, 6220, 1.000
7993.61, 1.317, 2.28560, 6213, 1.000
8084.45, 1.331, 2.32434, 6204, 1.000
8175.28, 1.347, 2.36483, 6194, 1.000
8266.12, 1.365, 2.40713, 6182, 1.000
8356.96, 1.385, 2.45076, 6166, 1.000
8447.79, 1.406, 2.49632, 6145, 1.000
8538.63, 1.432, 2.54390, 6119, 1.000
8629.47, 1.462, 2.59418, 6086, 1.000
8720.3, 1.499, 2.64606, 6041, 1.000
8811.14, 1.545, 2.70147, 5981, 1.000
8901.98, 1.604, 2.75931, 5899, 1.000
8992.81, 1.685, 2.82033, 5788, 1.000
9083.65, 1.798, 2.88470, 5635, 1.000
9088.43, 1.803, 2.88802, 5629, 1.000
9093.21, 1.808, 2.89135, 5622, 1.000
9097.99, 1.813, 2.89468, 5616, 1.000
9102.77, 1.818, 2.89801, 5609, 1.000
9107.55, 1.824, 2.90135, 5604, 1.000
9112.33, 1.829, 2.90536, 5598, 1.000
9117.12, 1.834, 2.90871, 5591, 1.000
9121.9, 1.840, 2.91206, 5585, 1.000
9126.68, 1.845, 2.91541, 5578, 1.000
9131.46, 1.850, 2.91877, 5572, 1.000
9136.24, 1.856, 2.92213, 5565, 1.000
9141.02, 1.861, 2.92617, 5559, 1.000
9145.81, 1.866, 2.92954, 5553, 1.000
9150.59, 1.872, 2.93292, 5546, 1.000
9155.37, 1.877, 2.93630, 5540, 1.000
9160.15, 1.882, 2.93968, 5534, 1.000
9164.94, 1.888, 2.94307, 5527, 1.000
9169.72, 1.893, 2.94646, 5521, 1.000
9174.5, 1.899, 2.95053, 5514, 1.000
9179.28, 1.904, 2.95393, 5508, 1.000
9184.07, 1.910, 2.95733, 5502, 1.000
9188.85, 1.915, 2.96074, 5495, 1.000
9193.63, 1.921, 2.96415, 5489, 1.000
9198.41, 1.926, 2.96756, 5483, 1.000
9203.2, 1.932, 2.97098, 5476, 1.000
9207.98, 1.937, 2.97509, 5470, 1.000
9212.76, 1.943, 2.97852, 5464, 1.000
9217.55, 1.948, 2.98195, 5458, 1.000
9222.33, 1.954, 2.98538, 5451, 1.000
9227.11, 1.960, 2.98882, 5445, 1.000
9231.9, 1.966, 2.99226, 5439, 1.000
9236.68, 1.971, 2.99640, 5433, 1.000
9241.47, 1.977, 2.99985, 5426, 1.000
9246.25, 1.982, 3.00331, 5420, 1.000
9251.03, 1.988, 3.00677, 5415, 1.000
9255.82, 1.994, 3.01023, 5409, 1.000
9260.6, 2.000, 3.01370, 5403, 1.000
9265.39, 2.005, 3.01787, 5396, 1.000
9270.17, 2.011, 3.02134, 5390, 1.000
9274.96, 2.017, 3.02482, 5384, 1.000
9279.74, 2.023, 3.02831, 5378, 1.000
9284.53, 2.029, 3.03180, 5372, 1.000
9289.31, 2.035, 3.03529, 5365, 1.000
9294.1, 2.040, 3.03948, 5359, 1.000
9298.88, 2.046, 3.04299, 5353, 1.000
9303.67, 2.052, 3.04649, 5347, 1.000
9308.45, 2.058, 3.05000, 5341, 1.000
9313.24, 2.064, 3.05351, 5335, 1.000
9318.02, 2.070, 3.05703, 5328, 1.000
9322.81, 2.076, 3.06055, 5322, 1.000
9327.59, 2.082, 3.06478, 5316, 1.000
9332.38, 2.088, 3.06832, 5310, 1.000
9337.17, 2.094, 3.07185, 5304, 1.000
9341.95, 2.100, 3.07539, 5298, 1.000
9346.74, 2.106, 3.07893, 5292, 1.000
9351.52, 2.113, 3.08319, 5286, 1.000
9356.31, 2.118, 3.08674, 5280, 1.000
9361.1, 2.125, 3.09030, 5274, 1.000
9365.88, 2.131, 3.09386, 5267, 1.000
9370.67, 2.137, 3.09742, 5261, 1.000
9375.46, 2.143, 3.10099, 5255, 1.000
9380.24, 2.149, 3.10527, 5249, 1.000
9385.03, 2.155, 3.10885, 5244, 1.000
9389.82, 2.162, 3.11243, 5238, 1.000
9394.61, 2.168, 3.11602, 5232, 1.000
9399.39, 2.174, 3.11961, 5226, 1.000
9404.18, 2.180, 3.12320, 5220, 1.000
9408.97, 2.187, 3.12752, 5214, 1.000
9413.76, 2.193, 3.13112, 5208, 1.000
9418.54, 2.199, 3.13473, 5202, 1.000
9423.33, 2.205, 3.13834, 5196, 1.000
9428.12, 2.212, 3.14196, 5190, 1.000
9432.91, 2.218, 3.14557, 5184, 1.000
9437.7, 2.225, 3.14992, 5178, 1.000
9442.49, 2.231, 3.15355, 5172, 1.000
9447.27, 2.238, 3.15718, 5167, 1.000
9452.06, 2.244, 3.16082, 5161, 1.000
9456.85, 2.251, 3.16446, 5155, 1.000
9461.64, 2.257, 3.16884, 5149, 1.000
9466.43, 2.264, 3.17249, 5143, 1.000
9471.22, 2.270, 3.17614, 5137, 1.000
9476.01, 2.277, 3.17980, 5131, 1.000
9480.8, 2.283, 3.18346, 5125, 1.000
9485.59, 2.290, 3.18713, 5119, 1.000
9490.38, 2.296, 3.19154, 5113, 1.000
9495.17, 2.303, 3.19521, 5107, 1.000
9499.96, 2.309, 3.19890, 5102, 1.000
9504.75, 2.316, 3.20258, 5097, 1.000
9509.54, 2.323, 3.20627, 5091, 1.000
9514.33, 2.330, 3.21070, 5085, 1.000
9519.12, 2.337, 3.21440, 5079, 1.000
9523.91, 2.343, 3.21810, 5073, 0.999
9528.7, 2.350, 3.22181, 5068, 0.999
9533.49, 2.357, 3.22552, 5062, 0.999
9538.28, 2.364, 3.22998, 5056, 0.999
9543.07, 2.370, 3.23370, 5050, 0.999
9547.86, 2.377, 3.23743, 5044, 0.999
9552.66, 2.384, 3.24116, 5038, 0.999
9557.45, 2.391, 3.24489, 5033, 0.999
9562.24, 2.398, 3.24938, 5027, 0.999
9562.25, 2.398, 3.24938, 5027, 0.999
9562.25, 2.398, 3.24938, 5027, 0.999
9568.37, 2.413, 3.28852, 5027, 0.999
9574.42, 2.428, 3.32813, 5026, 0.999
9580.41, 2.443, 3.36899, 5026, 0.999
9586.34, 2.458, 3.40957, 5025, 0.999
9592.22, 2.474, 3.45064, 5025, 0.999
9598.03, 2.489, 3.49301, 5023, 0.999
9603.79, 2.505, 3.53509, 5023, 0.999
9609.49, 2.521, 3.57849, 5022, 0.999
9615.13, 2.536, 3.62160, 5022, 0.999
9620.71, 2.552, 3.66522, 5021, 0.999
9626.24, 2.569, 3.71022, 5021, 0.999
9631.72, 2.585, 3.75491, 5020, 0.999
9637.14, 2.601, 3.80014, 5020, 0.999
9642.5, 2.617, 3.84680, 5019, 0.999
9647.81, 2.634, 3.89314, 5019, 0.999
9653.07, 2.650, 3.94094, 5018, 0.999
9658.28, 2.667, 3.98841, 5016, 0.999
9663.43, 2.684, 4.03645, 5016, 0.999
9668.53, 2.701, 4.08602, 5015, 0.999
9673.59, 2.718, 4.13523, 5015, 0.999
9678.59, 2.735, 4.18601, 5014, 0.999
9683.54, 2.753, 4.23643, 5013, 0.999
9688.44, 2.770, 4.28746, 5013, 0.999
9693.29, 2.788, 4.34010, 5012, 0.999
9698.09, 2.805, 4.39238, 5011, 0.999
9702.85, 2.824, 4.44529, 5011, 0.999
9707.56, 2.841, 4.49987, 5010, 0.999
9712.22, 2.860, 4.55407, 5008, 0.999
9716.83, 2.878, 4.60999, 5008, 0.999
9721.4, 2.896, 4.66552, 5007, 0.999
9725.92, 2.915, 4.72172, 5006, 0.999
9730.4, 2.934, 4.77969, 5005, 0.999
9734.83, 2.952, 4.83727, 5005, 0.999
9739.22, 2.971, 4.89553, 5004, 0.999
9743.57, 2.990, 4.95564, 5003, 0.999
9747.87, 3.010, 5.01534, 5001, 0.999
9752.13, 3.029, 5.07692, 5000, 0.999
9756.34, 3.048, 5.13807, 5000, 0.999
9760.52, 3.068, 5.19996, 4999, 0.999
9764.65, 3.087, 5.26381, 4998, 0.999
9768.74, 3.107, 5.32721, 4997, 0.999
9772.79, 3.128, 5.39138, 4996, 0.999
9776.8, 3.148, 5.45758, 4995, 0.999
9780.76, 3.168, 5.52332, 4993, 0.999
9784.69, 3.189, 5.59114, 4992, 0.999
9788.58, 3.209, 5.65848, 4992, 0.999
9792.43, 3.230, 5.72664, 4991, 0.999
9796.25, 3.251, 5.79696, 4990, 0.999
9800.02, 3.272, 5.86678, 4989, 0.999
9803.76, 3.293, 5.93745, 4988, 0.999
9807.46, 3.314, 6.01035, 4987, 0.999
9811.12, 3.336, 6.08275, 4985, 0.999
9814.74, 3.357, 6.15744, 4984, 0.999
9818.33, 3.380, 6.23161, 4983, 0.999
9821.89, 3.402, 6.30667, 4982, 0.999
9825.4, 3.424, 6.38410, 4981, 0.999
9828.89, 3.446, 6.46100, 4980, 0.999
9832.33, 3.469, 6.53883, 4979, 0.999
9835.75, 3.491, 6.61912, 4977, 0.999
9839.13, 3.514, 6.69885, 4976, 0.999
9842.47, 3.538, 6.78110, 4975, 0.999
9845.78, 3.560, 6.86278, 4973, 0.999
9849.06, 3.583, 6.94544, 4972, 0.999
9852.31, 3.607, 7.03072, 4970, 0.999
9855.52, 3.631, 7.11541, 4969, 0.999
9858.7, 3.655, 7.20278, 4968, 0.999
9861.85, 3.679, 7.28954, 4967, 0.999
9864.97, 3.703, 7.37734, 4966, 0.999
9868.06, 3.727, 7.46793, 4965, 0.999
9871.12, 3.752, 7.55788, 4962, 0.999
9874.14, 3.777, 7.64892, 4961, 0.999
9877.14, 3.802, 7.74283, 4960, 0.999
9880.1, 3.826, 7.83610, 4959, 0.998
9883.04, 3.852, 7.93232, 4958, 0.998
9885.94, 3.878, 8.02786, 4956, 0.998
9888.82, 3.903, 8.12456, 4955, 0.998
9891.67, 3.929, 8.22432, 4953, 0.998
9894.49, 3.955, 8.32339, 4952, 0.998
9897.28, 3.982, 8.42364, 4950, 0.998
9900.04, 4.008, 8.52707, 4949, 0.998
9902.78, 4.035, 8.62979, 4948, 0.998
9905.49, 4.062, 8.73575, 4945, 0.998
9908.17, 4.089, 8.84097, 4944, 0.998
9910.83, 4.116, 8.94746, 4943, 0.998
9913.46, 4.144, 9.05733, 4941, 0.998
9916.06, 4.171, 9.16643, 4940, 0.998
9918.63, 4.199, 9.27684, 4939, 0.998
9921.18, 4.227, 9.39074, 4936, 0.998
9923.71, 4.255, 9.50386, 4935, 0.998
9926.21, 4.284, 9.62055, 4933, 0.998
9928.68, 4.312, 9.73644, 4932, 0.998
9931.13, 4.341, 9.85372, 4931, 0.998
9933.56, 4.370, 9.97470, 4928, 0.998
9935.96, 4.399, 10.09485, 4927, 0.998
9938.34, 4.430, 10.21645, 4925, 0.998
9940.69, 4.460, 10.34189, 4924, 0.998
9943.02, 4.490, 10.46646, 4922, 0.998
9945.33, 4.520, 10.59498, 4920, 0.998
9947.61, 4.550, 10.72260, 4918, 0.998
9949.87, 4.580, 10.85176, 4917, 0.998
9952.11, 4.612, 10.98500, 4915, 0.998
9954.32, 4.643, 11.11732, 4914, 0.998
9956.52, 4.674, 11.25123, 4911, 0.998
9958.69, 4.705, 11.38938, 4910, 0.998
9960.84, 4.738, 11.52657, 4908, 0.998
9962.97, 4.770, 11.66810, 4907, 0.998
9965.07, 4.803, 11.80864, 4905, 0.998
9967.16, 4.835, 11.95088, 4902, 0.998
9969.22, 4.867, 12.09762, 4901, 0.998
9971.27, 4.901, 12.24334, 4899, 0.998
9973.29, 4.934, 12.39367, 4897, 0.998
9975.3, 4.968, 12.54296, 4896, 0.998
9977.28, 5.001, 12.69404, 4893, 0.998
9979.24, 5.036, 12.84991, 4891, 0.998
9981.19, 5.070, 13.00469, 4890, 0.998
9983.11, 5.105, 13.16134, 4888, 0.998
9985.02, 5.139, 13.32294, 4885, 0.998
9986.91, 5.175, 13.48342, 4884, 0.998
9988.77, 5.211, 13.64897, 4882, 0.997
9990.62, 5.246, 13.81338, 4880, 0.997
9992.45, 5.282, 13.97977, 4879, 0.997
9994.26, 5.319, 14.15142, 4876, 0.997
9996.06, 5.354, 14.32188, 4874, 0.997
9997.83, 5.391, 14.49439, 4872, 0.997
9999.59, 5.429, 14.67236, 4870, 0.997
10001.3, 5.466, 14.84910, 4869, 0.997
10003.1, 5.504, 15.03142, 4866, 0.997
10004.8, 5.541, 15.21248, 4864, 0.997
10006.5, 5.580, 15.39572, 4862, 0.997
10008.1, 5.618, 15.58476, 4860, 0.997
10009.8, 5.657, 15.77248, 4857, 0.997
10011.4, 5.696, 15.96247, 4856, 0.997
10013.0, 5.736, 16.15846, 4854, 0.997
10014.6, 5.776, 16.35310, 4852, 0.997
10016.2, 5.816, 16.55389, 4850, 0.997
10017.8, 5.856, 16.75329, 4847, 0.997
10019.4, 5.897, 16.95509, 4845, 0.997
10020.9, 5.937, 17.16327, 4843, 0.997
10022.4, 5.979, 17.37001, 4841, 0.997
10024.0, 6.020, 17.57924, 4838, 0.997
10025.5, 6.062, 17.79508, 4836, 0.997
10026.9, 6.104, 18.00943, 4834, 0.997
10028.4, 6.148, 18.23056, 4832, 0.997
10029.9, 6.190, 18.45015, 4829, 0.997
10031.3, 6.233, 18.67239, 4827, 0.997
10032.7, 6.276, 18.90166, 4825, 0.997
10034.1, 6.320, 19.12934, 4823, 0.997
10035.5, 6.365, 19.35976, 4821, 0.997
10036.9, 6.409, 19.59747, 4818, 0.997
10038.3, 6.454, 19.83353, 4816, 0.997
10039.6, 6.500, 20.07705, 4814, 0.997
10041.0, 6.545, 20.31889, 4812, 0.996
10042.3, 6.590, 20.56364, 4810, 0.996
10043.6, 6.637, 20.81613, 4807, 0.996
10044.9, 6.683, 21.06687, 4805, 0.996
10046.2, 6.731, 21.32554, 4802, 0.996
10047.5, 6.778, 21.58241, 4800, 0.996
10048.7, 6.827, 21.84238, 4797, 0.996
10050.0, 6.874, 22.11057, 4795, 0.996
10051.2, 6.923, 22.37690, 4793, 0.996
10052.4, 6.971, 22.64644, 4791, 0.996
10053.7, 7.021, 22.92451, 4787, 0.996
10054.9, 7.070, 23.20064, 4785, 0.996
10056.0, 7.120, 23.48551, 4783, 0.996
10057.2, 7.171, 23.76840, 4781, 0.996
10058.4, 7.221, 24.05470, 4779, 0.996
10059.5, 7.273, 24.35006, 4775, 0.996
10060.7, 7.325, 24.64336, 4773, 0.996
10061.8, 7.377, 24.94020, 4771, 0.996
10062.9, 7.428, 25.24643, 4768, 0.996
10064.0, 7.482, 25.55054, 4765, 0.996
10065.1, 7.535, 25.86426, 4763, 0.996
10066.2, 7.589, 26.17580, 4761, 0.996
10067.3, 7.644, 26.49110, 4758, 0.996
10068.4, 7.697, 26.81637, 4756, 0.996
10069.4, 7.752, 27.13938, 4753, 0.996
10070.4, 7.807, 27.46629, 4750, 0.995
10071.5, 7.863, 27.80353, 4748, 0.995
10072.5, 7.920, 28.13844, 4745, 0.995
10073.5, 7.976, 28.48394, 4742, 0.995
10074.5, 8.033, 28.82704, 4740, 0.995
10075.5, 8.091, 29.17427, 4737, 0.995
10076.5, 8.149, 29.53249, 4735, 0.995
10077.5, 8.207, 29.88822, 4732, 0.995
10078.4, 8.266, 30.24823, 4729, 0.995
10079.4, 8.325, 30.61963, 4727, 0.995
10080.3, 8.385, 30.98846, 4724, 0.995
10081.3, 8.447, 31.36895, 4722, 0.995
10082.2, 8.507, 31.74680, 4718, 0.995
10083.1, 8.568, 32.12921, 4716, 0.995
10084.0, 8.630, 32.52370, 4713, 0.995
10084.9, 8.692, 32.91547, 4711, 0.995
10085.8, 8.756, 33.31195, 4708, 0.995
10086.7, 8.819, 33.72097, 4705, 0.995
10087.5, 8.882, 34.12715, 4702, 0.995
10088.4, 8.945, 34.54618, 4699, 0.995
10089.2, 9.012, 34.96230, 4697, 0.995
10090.1, 9.076, 35.38344, 4694, 0.994
10090.9, 9.141, 35.81789, 4691, 0.994
10091.8, 9.209, 36.24933, 4688, 0.994
10092.6, 9.275, 36.68597, 4685, 0.994
10093.4, 9.343, 37.13642, 4683, 0.994
10094.2, 9.410, 37.58374, 4680, 0.994
10095.0, 9.480, 38.04521, 4677, 0.994
10095.8, 9.548, 38.50348, 4674, 0.994
10096.5, 9.618, 38.96727, 4671, 0.994
10097.3, 9.687, 39.44573, 4669, 0.994
10098.1, 9.759, 39.92087, 4666, 0.994
10098.8, 9.829, 40.41104, 4662, 0.994
10099.6, 9.901, 40.89781, 4659, 0.994
10100.3, 9.972, 41.39044, 4657, 0.994
10101.1, 10.046, 41.89865, 4654, 0.994
10101.8, 10.120, 42.40333, 4651, 0.994
10102.5, 10.193, 42.91410, 4648, 0.994
10103.2, 10.268, 43.44102, 4645, 0.993
10103.9, 10.344, 43.96428, 4642, 0.993
10104.6, 10.421, 44.50410, 4639, 0.993
10105.3, 10.495, 45.04017, 4636, 0.993
10106.0, 10.573, 45.58270, 4633, 0.993
10106.7, 10.651, 46.14238, 4630, 0.993
10107.3, 10.730, 46.69818, 4627, 0.993
10108.0, 10.809, 47.26068, 4624, 0.993
10108.7, 10.889, 47.84097, 4621, 0.993
10109.3, 10.967, 48.41724, 4618, 0.993
10110.0, 11.048, 49.01173, 4615, 0.993
10110.6, 11.130, 49.60209, 4612, 0.993
10111.2, 11.212, 50.19957, 4609, 0.993
10111.8, 11.295, 50.81594, 4606, 0.993
10112.5, 11.379, 51.42804, 4603, 0.993
10113.1, 11.463, 52.04752, 4599, 0.992
10113.7, 11.548, 52.68658, 4596, 0.992
10114.3, 11.633, 53.32121, 4593, 0.992
10114.9, 11.719, 53.97591, 4590, 0.992
10115.5, 11.806, 54.62608, 4587, 0.992
10116.0, 11.893, 55.28407, 4585, 0.992
10116.6, 11.984, 55.96287, 4581, 0.992
10117.2, 12.073, 56.63697, 4578, 0.992
10117.8, 12.162, 57.31918, 4575, 0.992
10118.3, 12.252, 58.02298, 4572, 0.992
10118.9, 12.342, 58.72189, 4569, 0.992
10119.4, 12.437, 59.44290, 4566, 0.992
10120.0, 12.529, 60.15892, 4562, 0.992
10120.5, 12.621, 60.88355, 4558, 0.991
10121.0, 12.715, 61.63111, 4555, 0.991
10121.6, 12.812, 62.37348, 4552, 0.991
10122.1, 12.906, 63.12480, 4549, 0.991
10122.6, 13.002, 63.89987, 4546, 0.991
10123.1, 13.101, 64.66957, 4543, 0.991
10123.6, 13.198, 65.46362, 4539, 0.991
10124.1, 13.298, 66.25215, 4536, 0.991
10124.6, 13.397, 67.05019, 4533, 0.991
10125.1, 13.496, 67.87346, 4530, 0.991
10125.6, 13.599, 68.69103, 4527, 0.991
10126.1, 13.699, 69.53445, 4523, 0.991
10126.5, 13.804, 70.37202, 4520, 0.990
10127.0, 13.906, 71.21968, 4516, 0.990
10127.5, 14.012, 72.09415, 4513, 0.990
10127.9, 14.119, 72.96255, 4510, 0.990
10128.4, 14.223, 73.84141, 4506, 0.990
10128.8, 14.332, 74.74807, 4503, 0.990
10129.3, 14.438, 75.64844, 4500, 0.990
10129.7, 14.548, 76.57729, 4497, 0.990
10130.2, 14.659, 77.49970, 4494, 0.990
10130.6, 14.767, 78.43321, 4490, 0.990
10131.0, 14.880, 79.39625, 4486, 0.989
10131.5, 14.993, 80.35261, 4483, 0.989
10131.9, 15.108, 81.32049, 4480, 0.989
10132.3, 15.219, 82.31898, 4476, 0.989
10132.7, 15.336, 83.31055, 4473, 0.989
10133.1, 15.453, 84.33348, 4470, 0.989
10133.5, 15.570, 85.34931, 4466, 0.989
10133.9, 15.689, 86.37737, 4463, 0.989
10134.3, 15.805, 87.43796, 4460, 0.989
10134.7, 15.926, 88.49118, 4456, 0.988
10135.1, 16.047, 89.55710, 4452, 0.988
10135.5, 16.170, 90.65672, 4449, 0.988
10135.9, 16.293, 91.74872, 4445, 0.988
10136.3, 16.417, 92.87525, 4442, 0.988
10136.6, 16.542, 93.99397, 4438, 0.988
10137.0, 16.669, 95.12617, 4435, 0.988
10137.4, 16.796, 96.29417, 4432, 0.988
10137.7, 16.924, 97.45407, 4428, 0.988
10138.1, 17.053, 98.62795, 4425, 0.987
10138.5, 17.183, 99.83895, 4421, 0.987
10138.8, 17.314, 101.04155, 4418, 0.987
10139.2, 17.446, 102.28219, 4414, 0.987
10139.5, 17.579, 103.51422, 4411, 0.987
10139.8, 17.717, 104.76109, 4407, 0.987
10140.2, 17.853, 106.04739, 4404, 0.987
10140.5, 17.989, 107.32478, 4400, 0.987
10140.8, 18.126, 108.61755, 4396, 0.986
10141.2, 18.264, 109.95121, 4392, 0.986
10141.5, 18.408, 111.27561, 4389, 0.986
10141.8, 18.548, 112.64191, 4385, 0.986
10142.1, 18.690, 113.99873, 4382, 0.986
10142.5, 18.832, 115.37189, 4378, 0.986
10142.8, 18.980, 116.78848, 4375, 0.986
10143.1, 19.125, 118.19524, 4371, 0.986
10143.4, 19.271, 119.64650, 4368, 0.985
10143.7, 19.422, 121.08769, 4364, 0.985
10144.0, 19.570, 122.54624, 4360, 0.985
10144.3, 19.724, 124.05092, 4357, 0.985
10144.6, 19.875, 125.54517, 4353, 0.985
10144.9, 20.026, 127.05741, 4350, 0.985
10145.2, 20.184, 128.61748, 4346, 0.984
10145.4, 20.338, 130.16673, 4342, 0.984
10145.7, 20.497, 131.76498, 4339, 0.984
10146.0, 20.654, 133.35214, 4335, 0.984
10146.3, 20.816, 134.95842, 4331, 0.984
10146.6, 20.980, 136.61551, 4328, 0.984
10146.8, 21.140, 138.26110, 4324, 0.984
10147.1, 21.306, 139.92651, 4320, 0.983
10147.4, 21.468, 141.64459, 4316, 0.983
10147.6, 21.637, 143.35076, 4313, 0.983
10147.9, 21.807, 145.11089, 4309, 0.983
10148.1, 21.974, 146.85881, 4305, 0.983
10148.4, 22.146, 148.62778, 4302, 0.983
10148.6, 22.320, 150.45270, 4298, 0.982
10148.9, 22.491, 152.26497, 4294, 0.982
10149.1, 22.667, 154.09906, 4290, 0.982
10149.4, 22.845, 155.99116, 4286, 0.982
10149.6, 23.025, 157.87014, 4284, 0.982
10149.9, 23.201, 159.80855, 4280, 0.982
